# Recoil Energy (eV), Zn total rate (evts/kg/day), Ge total rate (evts/kg/day)
1.000000000000000000e+00 1.856257916250252293e+01 2.214574414462932594e+01
1.072267222010323318e+00 1.854903551357545766e+01 2.212881953269441837e+01
1.149756995397735793e+00 1.853539064800089520e+01 2.211059680046420794e+01
1.232846739442066131e+00 1.852069560963511563e+01 2.209098566634362015e+01
1.321941148466029059e+00 1.850487715848688453e+01 2.206989009920956235e+01
1.417474162926805281e+00 1.848785737330591772e+01 2.204720799711724410e+01
1.519911082952933645e+00 1.846955338819972781e+01 2.202283085276684460e+01
1.629750834620644184e+00 1.844987711818052745e+01 2.199669420100456207e+01
1.747528400007683835e+00 1.842873497362838719e+01 2.196881305283860897e+01
1.873817422860383886e+00 1.840616745000153642e+01 2.189788095878883212e+01
2.009233002565047332e+00 1.838199279609847281e+01 2.186352495752321801e+01
2.154434690031883814e+00 1.832080995358369790e+01 2.182673966829997525e+01
2.310129700083159765e+00 1.829106195336267859e+01 2.178736685686713059e+01
2.477076355991710610e+00 1.825921586474727576e+01 2.174523905189598594e+01
2.656087782946686460e+00 1.822513544939578267e+01 2.170062250334943599e+01
2.848035868435801810e+00 1.818875259644144649e+01 2.165315367344216568e+01
3.053855508833415389e+00 1.815034751660003920e+01 2.160239209587643217e+01
3.274549162877728570e+00 1.810927059884114954e+01 2.154812974629573930e+01
3.511191734215131088e+00 1.806535239903207923e+01 2.149091361186501814e+01
3.764935806792468309e+00 1.801841408767672448e+01 2.143482596197940282e+01
4.037017258596554470e+00 1.797128832025290279e+01 2.138561119650834996e+01
4.328761281083058243e+00 1.792272231700336249e+01 2.131247694192018116e+01
4.641588833612779297e+00 1.787619318668348711e+01 2.123517871488131092e+01
4.977023564332111683e+00 1.781301127757369329e+01 2.115419173572962919e+01
5.336699231206309513e+00 1.774693921295327215e+01 2.106814513102990460e+01
5.722367659350217295e+00 1.767722109619369064e+01 2.097692671990374791e+01
6.135907273413172547e+00 1.760307279154933369e+01 2.087975306671519959e+01
6.579332246575680720e+00 1.752427988165347728e+01 2.077652893442937199e+01
7.054802310718643277e+00 1.744048191552627713e+01 2.067294665786397090e+01
7.564633275546288615e+00 1.735371547922951763e+01 2.056304366611052714e+01
8.111308307896871739e+00 1.726462912319963650e+01 2.044644847874550209e+01
8.697490026177835176e+00 1.716970281914072771e+01 2.032450112403467202e+01
9.326033468832198636e+00 1.706985061286691874e+01 2.019662598508693563e+01
1.000000000000000000e+01 1.696560475364497478e+01 2.006336706865624464e+01
1.072267222010323096e+01 1.685625576891251853e+01 1.992183210738457788e+01
1.149756995397735615e+01 1.674141470077580607e+01 1.977133325951685094e+01
1.232846739442065953e+01 1.661928229527880774e+01 1.961207771833487712e+01
1.321941148466029325e+01 1.648957165517254353e+01 1.944555893709034677e+01
1.417474162926805548e+01 1.635313527527712907e+01 1.926570461783349941e+01
1.519911082952933867e+01 1.621183421901144683e+01 1.906703736413638239e+01
1.629750834620644184e+01 1.605036963349647650e+01 1.885667559910312718e+01
1.747528400007684013e+01 1.587922118330676646e+01 1.862606073336915458e+01
1.873817422860383886e+01 1.569817640015002880e+01 1.839606457160822117e+01
2.009233002565046888e+01 1.550193685830209667e+01 1.815371587861317693e+01
2.154434690031884614e+01 1.530447496339639457e+01 1.789769183400382957e+01
2.310129700083160387e+01 1.509599680430118696e+01 1.763830994987521450e+01
2.477076355991711409e+01 1.487884540484682283e+01 1.736797896843741995e+01
2.656087782946686815e+01 1.465863813671766813e+01 1.708619473256738175e+01
2.848035868435801987e+01 1.442633657043983142e+01 1.679234756978128829e+01
3.053855508833415655e+01 1.418678030781142674e+01 1.652166423580817423e+01
3.274549162877728037e+01 1.396182578923933626e+01 1.619631530030938293e+01
3.511191734215130822e+01 1.370067607473878724e+01 1.585883688419378856e+01
3.764935806792467332e+01 1.342356094829808733e+01 1.550948445439106038e+01
4.037017258596555536e+01 1.313496486449423273e+01 1.515081513379186617e+01
4.328761281083059487e+01 1.284011894379357877e+01 1.477693800142320946e+01
4.641588833612780007e+01 1.253287151161864266e+01 1.439407029177763775e+01
4.977023564332111505e+01 1.221517421495235212e+01 1.400536061909481234e+01
5.336699231206309690e+01 1.189308569597315390e+01 1.359557460639207704e+01
5.722367659350216940e+01 1.155988889215973181e+01 1.319975973784971224e+01
6.135907273413172902e+01 1.122405672091269579e+01 1.277840043309041107e+01
6.579332246575683030e+01 1.088244700317244273e+01 1.233235465333877201e+01
7.054802310718645231e+01 1.051759091229535237e+01 1.188316648171757883e+01
7.564633275546290747e+01 1.014145132465031551e+01 1.142457745634373367e+01
8.111308307896872805e+01 9.761105024752495751e+00 1.095972282260101416e+01
8.697490026177834466e+01 9.374573397947246534e+00 1.049501995719757552e+01
9.326033468832198992e+01 8.985240893450180621e+00 1.001887444630307833e+01
1.000000000000000000e+02 8.592784053568609082e+00 9.519964881474312079e+00
1.072267222010323167e+02 8.176022826510385144e+00 9.047507335767203784e+00
1.149756995397735579e+02 7.775356159045663240e+00 8.577145978771493873e+00
1.232846739442065882e+02 7.381609452271726823e+00 8.103788931504505300e+00
1.321941148466028721e+02 6.986993948938843069e+00 7.614536264219390560e+00
1.417474162926804695e+02 6.590585655009443045e+00 7.142825401539242058e+00
1.519911082952933157e+02 6.179593330963005116e+00 6.684266992352920767e+00
1.629750834620645037e+02 5.791337763840345154e+00 6.238804512275595293e+00
1.747528400007684866e+02 5.411649608364834663e+00 5.803756452886503325e+00
1.873817422860385022e+02 5.045239075485429048e+00 5.366037844084582176e+00
2.009233002565048025e+02 4.678948265655198391e+00 4.938757082923111774e+00
2.154434690031884543e+02 4.315704142480944583e+00 4.530241671510979451e+00
2.310129700083160458e+02 3.962978816578461405e+00 4.143490347667152740e+00
2.477076355991711409e+02 3.634162222896326622e+00 3.755272993786340496e+00
2.656087782946686957e+02 3.307441880208129792e+00 3.377747188480855645e+00
2.848035868435802058e+02 2.987375858448742427e+00 3.042845979722867966e+00
3.053855508833415797e+02 2.688697462142208394e+00 2.717438229259323101e+00
3.274549162877728463e+02 2.413338545447921923e+00 2.413525466404920383e+00
3.511191734215130964e+02 2.144972327713627447e+00 2.124248663691925110e+00
3.764935806792467474e+02 1.900114510671212509e+00 1.859123395834376691e+00
4.037017258596553688e+02 1.668312838557569622e+00 1.613144154469341229e+00
4.328761281083056929e+02 1.452693358560147363e+00 1.391196214189625024e+00
4.641588833612781855e+02 1.257907791242405260e+00 1.187522027211428410e+00
4.977023564332113779e+02 1.079115436994583455e+00 1.004076266357511349e+00
5.336699231206312106e+02 9.165651214891255005e-01 8.398519869461119614e-01
5.722367659350220492e+02 7.710313620778159738e-01 6.974374013251838367e-01
6.135907273413175744e+02 6.432123400199918350e-01 5.704252479932349074e-01
6.579332246575681893e+02 5.300975678568817795e-01 4.601128183419000428e-01
7.054802310718645231e+02 4.303814504599283719e-01 3.643242414650070260e-01
7.564633275546290179e+02 3.446181216689098159e-01 2.838368874390298502e-01
8.111308307896872520e+02 2.705035098464150245e-01 2.162557683209535564e-01
8.697490026177833897e+02 2.087412030389122208e-01 1.616809558153388671e-01
9.326033468832199560e+02 1.574882941336436804e-01 1.176903785176010853e-01
1.000000000000000000e+03 1.160327946346950828e-01 8.247709416362945800e-02
